EC-Lab ASCII FILE
Nb header lines : 65                          

Potentio Electrochemical Impedance Spectroscopy

Run on channel : 1 (SN 11321)
User : 
Electrode connection : standard
Potential control : Ewe
Ewe ctrl range : min = -10.00 V. max = 10.00 V
Ewe.I filtering : 50 kHz
Safety Limits :
	Do not start on E overload
Channel : Grounded
Acquisition started on : 04/11/2024 10:26:08.620
Loaded Setting File :  D:\ECLab Data\bh\Ir\Ir impedance\settings\Impedence\2nd\0.8 to 1.18 V.mps
Saved on :
	File : 0.8 to 1_11_PEIS_C01.mpr
	Directory : D:\ECLab Data\bh\Ir\Ir impedance\Repeat to remove negative imped\10 cycles imped\0.8 to 1.18 V\
	Host : 127.0.0.1
Device : SP-300 (SN 1287)
Address : USB
EC-Lab for windows v11.50 (software)
Internet server v11.50 (firmware)
Command interpretor v11.50 (firmware)
Electrode material : 
Initial state : 
Electrolyte : 
Comments : 
Cable : standard
Electrode surface area : 0.001 cm�
Characteristic mass : 0.001 g
Equivalent Weight : 0.000 g/eq.
Density : 0.000 g/cm3
Volume (V) : 0.001 cm�
Cycle Definition : Charge/Discharge alternance
Mode                Single sine         
E (V)               1.0000              
vs.                 Ref                 
tE (h:m:s)          0:00:0.0000         
record              0                   
dI                  0.000               
unit dI             mA                  
dt (s)              0.000               
fi                  1.000               
unit fi             Hz                  
ff                  0.200               
unit ff             MHz                 
Nd                  10                  
Points              per decade          
spacing             Logarithmic         
Va (mV)             10.0                
pw                  0.10                
Na                  2                   
corr                0                   
E range min (V)     -10.000             
E range max (V)     10.000              
I Range             Auto                
Bandwidth           8                   
nc cycles           0                   
goto Ns'            0                   
nr cycles           0                   
inc. cycle          0                   

freq/Hz	Re(Z)/Ohm	-Im(Z)/Ohm	|Z|/Ohm	Phase(Z)/deg	time/s	<Ewe>/V	<I>/mA	Cs/�F	Cp/�F	cycle number	I Range	|Ewe|/V	|I|/A	Ns	(Q-Qo)/mA.h	Re(Y)/Ohm-1	Im(Y)/Ohm-1	|Y|/Ohm-1	Phase(Y)/deg	Re(C)/nF	Im(C)/nF	|C|/nF	Phase(C)/deg	Re(M)	Im(M)	|M|	Phase(M)/deg	Re(Permittivity)	Im(Permittivity)	|Permittivity|	Phase(Permittivity)/deg	Re(Resistivity)/Ohm.cm	Im(Resistivity)/Ohm.cm	|Resistivity|/Ohm.cm	Phase(Resistivity)/deg	Re(Conductivity)/mS/cm	Im(Conductivity)/mS/cm	|Conductivity|/mS/cm	Phase(Conductivity)/deg	Tan(Delta)	Loss Angle(Delta)/deg	dq/mA.h	
1.0000616E+000	3.8400322E+001	8.0624567E+002	8.0715961E+002	-8.7273148E+001	04/11/2024 10:31:20.6403	1.0006164E+000	2.4251573E-004	1.9739037E+002	1.9694362E+002	1.000000000000000E+000	41	1.0063267E-002	1.2467506E-005	0	-2.179642318177879E-007	5.8940746E-005	1.2375095E-003	1.2389123E-003	8.7273148E+001	1.9694363E+005	9.3801328E+003	1.9716688E+005	-2.7268524E+000	0.0000000E+000	0.0000000E+000	0.0000000E+000	2.7268524E+000	0.0000000E+000	0.0000000E+000	0.0000000E+000	-2.7268524E+000	0.0000000E+000	0.0000000E+000	0.0000000E+000	-8.7273148E+001	0.0000000E+000	0.0000000E+000	0.0000000E+000	8.7273148E+001	4.7628563E-002	2.7268524E+000	-2.179642318177879E-007
1.2596772E+000	3.0884302E+001	6.4631519E+002	6.4705267E+002	-8.7264191E+001	04/11/2024 10:31:22.3449	1.0005959E+000	2.1776730E-004	1.9548639E+002	1.9504103E+002	1.000000000000000E+000	41	1.0060384E-002	1.5548014E-005	0	8.967262652650810E-008	7.3766387E-005	1.5437078E-003	1.5454693E-003	8.7264191E+001	1.9504103E+005	9.3200752E+003	1.9526358E+005	-2.7358093E+000	0.0000000E+000	0.0000000E+000	0.0000000E+000	2.7358093E+000	0.0000000E+000	0.0000000E+000	0.0000000E+000	-2.7358093E+000	0.0000000E+000	0.0000000E+000	0.0000000E+000	-8.7264191E+001	0.0000000E+000	0.0000000E+000	0.0000000E+000	8.7264191E+001	4.7785204E-002	2.7358093E+000	3.076368583442960E-007
1.5846864E+000	2.7022837E+001	5.1751373E+002	5.1821875E+002	-8.7010918E+001	04/11/2024 10:31:23.7101	1.0006090E+000	2.0482781E-004	1.9406844E+002	1.9354076E+002	1.000000000000000E+000	41	1.0063626E-002	1.9419649E-005	0	6.525925585276321E-007	1.0062481E-004	1.9270616E-003	1.9296870E-003	8.7010918E+001	1.9354077E+005	1.0106062E+004	1.9380444E+005	-2.9890823E+000	0.0000000E+000	0.0000000E+000	0.0000000E+000	2.9890823E+000	0.0000000E+000	0.0000000E+000	0.0000000E+000	-2.9890823E+000	0.0000000E+000	0.0000000E+000	0.0000000E+000	-8.7010918E+001	0.0000000E+000	0.0000000E+000	0.0000000E+000	8.7010918E+001	5.2216657E-002	2.9890747E+000	5.629199320011239E-007
1.9950197E+000	2.3439560E+001	4.1399051E+002	4.1465353E+002	-8.6759453E+001	04/11/2024 10:31:24.8032	1.0006088E+000	1.8204797E-004	1.9270038E+002	1.9208463E+002	1.000000000000000E+000	41	1.0068094E-002	2.4280740E-005	0	1.013493461055033E-006	1.3632602E-004	2.4077957E-003	2.4116519E-003	8.6759453E+001	1.9208461E+005	1.0875563E+004	1.9239225E+005	-3.2405472E+000	0.0000000E+000	0.0000000E+000	0.0000000E+000	3.2405472E+000	0.0000000E+000	0.0000000E+000	0.0000000E+000	-3.2405472E+000	0.0000000E+000	0.0000000E+000	0.0000000E+000	-8.6759453E+001	0.0000000E+000	0.0000000E+000	0.0000000E+000	8.6759453E+001	5.6618594E-002	3.2405396E+000	3.609009025274009E-007
2.5112481E+000	2.0886562E+001	3.3039362E+002	3.3105316E+002	-8.6382736E+001	04/11/2024 10:31:26.1291	1.0006140E+000	2.1088131E-004	1.9182220E+002	1.9105864E+002	1.000000000000000E+000	40	1.0059541E-002	3.0386484E-005	0	5.843826807199042E-007	1.9057734E-004	3.0146448E-003	3.0206628E-003	8.6382736E+001	1.9105864E+005	1.2078188E+004	1.9144003E+005	-3.6172638E+000	0.0000000E+000	0.0000000E+000	0.0000000E+000	3.6172638E+000	0.0000000E+000	0.0000000E+000	0.0000000E+000	-3.6172638E+000	0.0000000E+000	0.0000000E+000	0.0000000E+000	-8.6382736E+001	0.0000000E+000	0.0000000E+000	0.0000000E+000	8.6382736E+001	6.3217208E-002	3.6172638E+000	-4.291107803351288E-007
3.1629577E+000	1.9302885E+001	2.6401410E+002	2.6471881E+002	-8.5818367E+001	04/11/2024 10:31:26.8340	1.0006224E+000	1.1819884E-004	1.9058980E+002	1.8957640E+002	1.000000000000000E+000	40	1.0063556E-002	3.8016020E-005	0	3.992324267558919E-007	2.7545640E-004	3.7675370E-003	3.7775934E-003	8.5818367E+001	1.8957639E+005	1.3860521E+004	1.9008241E+005	-4.1816330E+000	0.0000000E+000	0.0000000E+000	0.0000000E+000	4.1816330E+000	0.0000000E+000	0.0000000E+000	0.0000000E+000	-4.1816330E+000	0.0000000E+000	0.0000000E+000	0.0000000E+000	-8.5818367E+001	0.0000000E+000	0.0000000E+000	0.0000000E+000	8.5818367E+001	7.3113084E-002	4.1816406E+000	-1.851502539640124E-007
3.9819033E+000	1.8087473E+001	2.1031444E+002	2.1109079E+002	-8.5084541E+001	04/11/2024 10:31:27.4050	1.0006186E+000	1.4088287E-004	1.9004669E+002	1.8865135E+002	1.000000000000000E+000	40	1.0063061E-002	4.7671718E-005	0	1.111103640914937E-006	4.0591886E-004	4.7198753E-003	4.7372980E-003	8.5084541E+001	1.8865138E+005	1.6224401E+004	1.8934775E+005	-4.9154587E+000	0.0000000E+000	0.0000000E+000	0.0000000E+000	4.9154587E+000	0.0000000E+000	0.0000000E+000	0.0000000E+000	-4.9154587E+000	0.0000000E+000	0.0000000E+000	0.0000000E+000	-8.5084541E+001	0.0000000E+000	0.0000000E+000	0.0000000E+000	8.5084541E+001	8.6002052E-002	4.9154663E+000	7.118712141590449E-007
5.0144420E+000	1.6901197E+001	1.6788953E+002	1.6873810E+002	-8.4251480E+001	04/11/2024 10:31:27.8682	1.0006024E+000	7.9266043E-005	1.8904878E+002	1.8715215E+002	1.000000000000000E+000	40	1.0064269E-002	5.9644321E-005	0	1.091254365113046E-006	5.9359660E-004	5.8965413E-003	5.9263441E-003	8.4251480E+001	1.8715216E+005	1.8840348E+004	1.8809808E+005	-5.7485199E+000	0.0000000E+000	0.0000000E+000	0.0000000E+000	5.7485199E+000	0.0000000E+000	0.0000000E+000	0.0000000E+000	-5.7485199E+000	0.0000000E+000	0.0000000E+000	0.0000000E+000	-8.4251480E+001	0.0000000E+000	0.0000000E+000	0.0000000E+000	8.4251480E+001	1.0066856E-001	5.7485199E+000	-1.984927580189025E-008
6.3105822E+000	1.6334602E+001	1.3400578E+002	1.3499767E+002	-8.3050232E+001	04/11/2024 10:31:28.2472	1.0006045E+000	4.7364170E-005	1.8820326E+002	1.8544781E+002	1.000000000000000E+000	40	1.0067781E-002	7.4577452E-005	0	4.577759051598049E-007	8.9630525E-004	7.3531093E-003	7.4075353E-003	8.3050232E+001	1.8544783E+005	2.2605111E+004	1.8682047E+005	-6.9497681E+000	0.0000000E+000	0.0000000E+000	0.0000000E+000	6.9497681E+000	0.0000000E+000	0.0000000E+000	0.0000000E+000	-6.9497681E+000	0.0000000E+000	0.0000000E+000	0.0000000E+000	-8.3050232E+001	0.0000000E+000	0.0000000E+000	0.0000000E+000	8.3050232E+001	1.2189475E-001	6.9497681E+000	-6.334784599532416E-007
7.9476089E+000	1.5522514E+001	1.0687086E+002	1.0799227E+002	-8.1735832E+001	04/11/2024 10:31:28.8215	1.0006096E+000	1.0330130E-004	1.8738048E+002	1.8350911E+002	1.000000000000000E+000	40	1.0067848E-002	9.3227492E-005	0	1.276584973781509E-006	1.3309964E-003	9.1637652E-003	9.2599215E-003	8.1735832E+001	1.8350911E+005	2.6653887E+004	1.8543469E+005	-8.2641678E+000	0.0000000E+000	0.0000000E+000	0.0000000E+000	8.2641678E+000	0.0000000E+000	0.0000000E+000	0.0000000E+000	-8.2641678E+000	0.0000000E+000	0.0000000E+000	0.0000000E+000	-8.1735832E+001	0.0000000E+000	0.0000000E+000	0.0000000E+000	8.1735832E+001	1.4524552E-001	8.2641602E+000	8.188090686217037E-007
1.0003224E+001	1.5008390E+001	8.5390518E+001	8.6699440E+001	-8.0031410E+001	04/11/2024 10:31:29.2857	1.0006094E+000	1.1435483E-004	1.8632472E+002	1.8074121E+002	1.000000000000000E+000	40	1.0078995E-002	1.1625214E-004	0	1.008436769278584E-006	1.9966480E-003	1.1359967E-002	1.1534099E-002	8.0031410E+001	1.8074122E+005	3.1767398E+004	1.8351173E+005	-9.9685898E+000	0.0000000E+000	0.0000000E+000	0.0000000E+000	9.9685898E+000	0.0000000E+000	0.0000000E+000	0.0000000E+000	-9.9685898E+000	0.0000000E+000	0.0000000E+000	0.0000000E+000	-8.0031410E+001	0.0000000E+000	0.0000000E+000	0.0000000E+000	8.0031410E+001	1.7576179E-001	9.9685974E+000	-2.681482045029243E-007
1.2600795E+001	1.4559372E+001	6.8108246E+001	6.9647026E+001	-7.7933601E+001	04/11/2024 10:31:30.1209	1.0006179E+000	-5.8111100E-004	1.8544815E+002	1.7734410E+002	1.000000000000000E+000	39	1.0061311E-002	1.4446145E-004	0	3.281681687812023E-007	3.0014934E-003	1.4040886E-002	1.4358114E-002	7.7933601E+001	1.7734409E+005	3.7910508E+004	1.8135086E+005	-1.2066399E+001	0.0000000E+000	0.0000000E+000	0.0000000E+000	1.2066399E+001	0.0000000E+000	0.0000000E+000	0.0000000E+000	-1.2066399E+001	0.0000000E+000	0.0000000E+000	0.0000000E+000	-7.7933601E+001	0.0000000E+000	0.0000000E+000	0.0000000E+000	7.7933601E+001	2.1376812E-001	1.2066406E+001	-6.802686004973820E-007
1.5857593E+001	1.4266624E+001	5.4441631E+001	5.6279907E+001	-7.5315628E+001	04/11/2024 10:31:30.5619	1.0006101E+000	-3.6814634E-004	1.8435365E+002	1.7250722E+002	1.000000000000000E+000	39	1.0065800E-002	1.7885245E-004	0	5.287686701194616E-007	4.5041670E-003	1.7187962E-002	1.7768331E-002	7.5315628E+001	1.7250722E+005	4.5206133E+004	1.7833209E+005	-1.4684372E+001	0.0000000E+000	0.0000000E+000	0.0000000E+000	1.4684372E+001	0.0000000E+000	0.0000000E+000	0.0000000E+000	-1.4684372E+001	0.0000000E+000	0.0000000E+000	0.0000000E+000	-7.5315628E+001	0.0000000E+000	0.0000000E+000	0.0000000E+000	7.5315628E+001	2.6205358E-001	1.4684372E+001	2.006005013382593E-007
1.9968077E+001	1.3944331E+001	4.3433117E+001	4.5616665E+001	-7.2200615E+001	04/11/2024 10:31:31.0281	1.0006200E+000	-4.7136622E-004	1.8351134E+002	1.6636342E+002	1.000000000000000E+000	39	1.0067660E-002	2.2070137E-004	0	4.516926863871049E-007	6.7011714E-003	2.0872476E-002	2.1921813E-002	7.2200615E+001	1.6636341E+005	5.3411477E+004	1.7472713E+005	-1.7799385E+001	0.0000000E+000	0.0000000E+000	0.0000000E+000	1.7799385E+001	0.0000000E+000	0.0000000E+000	0.0000000E+000	-1.7799385E+001	0.0000000E+000	0.0000000E+000	0.0000000E+000	-7.2200615E+001	0.0000000E+000	0.0000000E+000	0.0000000E+000	7.2200615E+001	3.2105297E-001	1.7799377E+001	-7.707598373235669E-008
2.5136768E+001	1.3729849E+001	3.4682858E+001	3.7301601E+001	-6.8402954E+001	04/11/2024 10:31:31.4897	1.0006198E+000	-3.8528611E-004	1.8255586E+002	1.5782310E+002	1.000000000000000E+000	39	1.0065177E-002	2.6983229E-004	0	6.313173987857428E-007	9.8675825E-003	2.4926422E-002	2.6808500E-002	6.8402954E+001	1.5782314E+005	6.2477188E+004	1.6973963E+005	-2.1597046E+001	0.0000000E+000	0.0000000E+000	0.0000000E+000	2.1597046E+001	0.0000000E+000	0.0000000E+000	0.0000000E+000	-2.1597046E+001	0.0000000E+000	0.0000000E+000	0.0000000E+000	-6.8402954E+001	0.0000000E+000	0.0000000E+000	0.0000000E+000	6.8402954E+001	3.9586845E-001	2.1597046E+001	1.796247123986379E-007
3.1650887E+001	1.3499067E+001	2.7734352E+001	3.0845083E+001	-6.4046547E+001	04/11/2024 10:31:31.9333	1.0006275E+000	-3.6683874E-004	1.8130769E+002	1.4658192E+002	1.000000000000000E+000	39	1.0068609E-002	3.2642510E-004	0	9.458075755343694E-007	1.4188349E-002	2.9150508E-002	3.2420076E-002	6.4046547E+001	1.4658192E+005	7.1345430E+004	1.6302280E+005	-2.5953453E+001	0.0000000E+000	0.0000000E+000	0.0000000E+000	2.5953453E+001	0.0000000E+000	0.0000000E+000	0.0000000E+000	-2.5953453E+001	0.0000000E+000	0.0000000E+000	0.0000000E+000	-6.4046547E+001	0.0000000E+000	0.0000000E+000	0.0000000E+000	6.4046547E+001	4.8672733E-001	2.5953461E+001	3.144901767486266E-007
3.9834305E+001	1.3345886E+001	2.2177443E+001	2.5883425E+001	-5.8961418E+001	04/11/2024 10:31:32.4006	1.0006200E+000	-4.2478117E-004	1.8015712E+002	1.3226071E+002	1.000000000000000E+000	39	1.0070138E-002	3.8905739E-004	0	1.257721739219657E-006	1.9920669E-002	3.3103049E-002	3.8634762E-002	5.8961418E+001	1.3226072E+005	7.9591523E+004	1.5436227E+005	-3.1038582E+001	0.0000000E+000	0.0000000E+000	0.0000000E+000	3.1038582E+001	0.0000000E+000	0.0000000E+000	0.0000000E+000	-3.1038582E+001	0.0000000E+000	0.0000000E+000	0.0000000E+000	-5.8961418E+001	0.0000000E+000	0.0000000E+000	0.0000000E+000	5.8961418E+001	6.0177749E-001	3.1038574E+001	3.119141636852874E-007
5.0144421E+001	1.3220526E+001	1.7723907E+001	2.2111517E+001	-5.3280193E+001	04/11/2024 10:31:32.8652	1.0006099E+000	-5.3209974E-004	1.7907628E+002	1.1505882E+002	1.000000000000000E+000	39	1.0069100E-002	4.5537809E-004	0	1.363135317779192E-006	2.7040310E-002	3.6251199E-002	4.5225300E-002	5.3280193E+001	1.1505882E+005	8.5824086E+004	1.4354200E+005	-3.6719807E+001	0.0000000E+000	0.0000000E+000	0.0000000E+000	3.6719807E+001	0.0000000E+000	0.0000000E+000	0.0000000E+000	-3.6719807E+001	0.0000000E+000	0.0000000E+000	0.0000000E+000	-5.3280193E+001	0.0000000E+000	0.0000000E+000	0.0000000E+000	5.3280193E+001	7.4591488E-001	3.6719803E+001	1.054135785595349E-007
6.3160732E+001	1.3106725E+001	1.4211796E+001	1.9332909E+001	-4.7316429E+001	04/11/2024 10:31:33.3416	1.0006169E+000	-3.6944277E-004	1.7730623E+002	9.5813683E+001	1.000000000000000E+000	39	1.0085885E-002	5.2169518E-004	0	1.663426169262190E-006	3.5067093E-002	3.8023718E-002	5.1725276E-002	4.7316429E+001	9.5813688E+004	8.8363469E+004	1.3033942E+005	-4.2683571E+001	0.0000000E+000	0.0000000E+000	0.0000000E+000	4.2683571E+001	0.0000000E+000	0.0000000E+000	0.0000000E+000	-4.2683571E+001	0.0000000E+000	0.0000000E+000	0.0000000E+000	-4.7316429E+001	0.0000000E+000	0.0000000E+000	0.0000000E+000	4.7316429E+001	9.2224270E-001	4.2683563E+001	3.002908514829984E-007
7.9516319E+001	1.3002560E+001	1.1397797E+001	1.7290932E+001	-4.1237190E+001	04/11/2024 10:31:33.8100	1.0006051E+000	-4.3837941E-004	1.7560745E+002	7.6304115E+001	1.000000000000000E+000	39	1.0091414E-002	5.8362464E-004	0	1.777488732212482E-006	4.3490265E-002	3.8122740E-002	5.7833783E-002	4.1237190E+001	7.6304117E+004	8.7047422E+004	1.1575652E+005	-4.8762810E+001	0.0000000E+000	0.0000000E+000	0.0000000E+000	4.8762810E+001	0.0000000E+000	0.0000000E+000	0.0000000E+000	-4.8762810E+001	0.0000000E+000	0.0000000E+000	0.0000000E+000	-4.1237190E+001	0.0000000E+000	0.0000000E+000	0.0000000E+000	4.1237190E+001	1.1407959E+000	4.8762817E+001	1.140625629502916E-007
1.0009631E+002	1.2916718E+001	9.1516924E+000	1.5830195E+001	-3.5318157E+001	04/11/2024 10:31:34.2746	1.0006177E+000	-3.5267026E-004	1.7374031E+002	5.8067200E+001	1.000000000000000E+000	39	1.0094622E-002	6.3768146E-004	0	1.630160883240428E-006	5.1544175E-002	3.6519840E-002	6.3170411E-002	3.5318157E+001	5.8067211E+004	8.1956180E+004	1.0044210E+005	-5.4681843E+001	0.0000000E+000	0.0000000E+000	0.0000000E+000	5.4681843E+001	0.0000000E+000	0.0000000E+000	0.0000000E+000	-5.4681843E+001	0.0000000E+000	0.0000000E+000	0.0000000E+000	-3.5318157E+001	0.0000000E+000	0.0000000E+000	0.0000000E+000	3.5318157E+001	1.4114022E+000	5.4681839E+001	-1.473278489720540E-007
1.2600794E+002	1.2836068E+001	7.3639169E+000	1.4798375E+001	-2.9842438E+001	04/11/2024 10:31:34.7362	1.0006081E+000	-4.1452525E-004	1.7151942E+002	4.2472031E+001	1.000000000000000E+000	39	1.0093880E-002	6.8209379E-004	0	2.038793169767208E-006	5.8614347E-002	3.3626433E-002	6.7574985E-002	2.9842438E+001	4.2472031E+004	7.4033141E+004	8.5350922E+004	-6.0157562E+001	0.0000000E+000	0.0000000E+000	0.0000000E+000	6.0157562E+001	0.0000000E+000	0.0000000E+000	0.0000000E+000	-6.0157562E+001	0.0000000E+000	0.0000000E+000	0.0000000E+000	-2.9842438E+001	0.0000000E+000	0.0000000E+000	0.0000000E+000	2.9842438E+001	1.7431034E+000	6.0157562E+001	4.086322865267800E-007
1.5862956E+002	1.2763480E+001	5.9421744E+000	1.4078916E+001	-2.4964834E+001	04/11/2024 10:31:35.4575	1.0006157E+000	-5.0005000E-003	1.6884595E+002	3.0077587E+001	1.000000000000000E+000	38	1.0067558E-002	7.1508047E-004	0	1.490869930832155E-006	6.4391822E-002	2.9978298E-002	7.1028195E-002	2.4964834E+001	3.0077590E+004	6.4605086E+004	7.1263445E+004	-6.5035164E+001	0.0000000E+000	0.0000000E+000	0.0000000E+000	6.5035164E+001	0.0000000E+000	0.0000000E+000	0.0000000E+000	-6.5035164E+001	0.0000000E+000	0.0000000E+000	0.0000000E+000	-2.4964834E+001	0.0000000E+000	0.0000000E+000	0.0000000E+000	2.4964834E+001	2.1479478E+000	6.5035164E+001	-5.479232389350525E-007
1.9968077E+002	1.2698985E+001	4.8121676E+000	1.3580176E+001	-2.0753759E+001	04/11/2024 10:31:35.9251	1.0006092E+000	-5.0415192E-003	1.6563159E+002	2.0797630E+001	1.000000000000000E+000	38	1.0066877E-002	7.4129208E-004	0	1.600634089557894E-006	6.8858601E-002	2.6093358E-002	7.3636748E-002	2.0753759E+001	2.0797633E+004	5.4883539E+004	5.8691945E+004	-6.9246239E+001	0.0000000E+000	0.0000000E+000	0.0000000E+000	6.9246239E+001	0.0000000E+000	0.0000000E+000	0.0000000E+000	-6.9246239E+001	0.0000000E+000	0.0000000E+000	0.0000000E+000	-2.0753759E+001	0.0000000E+000	0.0000000E+000	0.0000000E+000	2.0753759E+001	2.6389325E+000	6.9246239E+001	1.097641587257387E-007
2.5152937E+002	1.2630685E+001	3.9205828E+000	1.3225172E+001	-1.7244417E+001	04/11/2024 10:31:36.3866	1.0006251E+000	-4.8494735E-003	1.6139156E+002	1.4183369E+001	1.000000000000000E+000	38	1.0068825E-002	7.6133787E-004	0	1.608628389593731E-007	7.2214469E-002	2.2415474E-002	7.5613379E-002	1.7244417E+001	1.4183367E+004	4.5693633E+004	4.7844289E+004	-7.2755585E+001	0.0000000E+000	0.0000000E+000	0.0000000E+000	7.2755585E+001	0.0000000E+000	0.0000000E+000	0.0000000E+000	-7.2755585E+001	0.0000000E+000	0.0000000E+000	0.0000000E+000	-1.7244417E+001	0.0000000E+000	0.0000000E+000	0.0000000E+000	1.7244417E+001	3.2216346E+000	7.2755585E+001	-1.439771250598521E-006
3.1651929E+002	1.2569906E+001	3.2138755E+000	1.2974264E+001	-1.4342137E+001	04/11/2024 10:31:36.8488	1.0006248E+000	-5.3230627E-003	1.5645552E+002	9.6002712E+000	1.000000000000000E+000	38	1.0066099E-002	7.7585131E-004	0	1.163217958819587E-007	7.4673504E-002	1.9092536E-002	7.7075660E-002	1.4342137E+001	9.6002744E+003	3.7547977E+004	3.8755848E+004	-7.5657860E+001	0.0000000E+000	0.0000000E+000	0.0000000E+000	7.5657860E+001	0.0000000E+000	0.0000000E+000	0.0000000E+000	-7.5657860E+001	0.0000000E+000	0.0000000E+000	0.0000000E+000	-1.4342137E+001	0.0000000E+000	0.0000000E+000	0.0000000E+000	1.4342137E+001	3.9111366E+000	7.5657860E+001	-4.454104307741444E-008
3.9859711E+002	1.2500572E+001	2.6544089E+000	1.2779287E+001	-1.1988292E+001	04/11/2024 10:31:37.3155	1.0006139E+000	-5.6847809E-003	1.5042435E+002	6.4899383E+000	1.000000000000000E+000	38	1.0066259E-002	7.8770111E-004	0	-1.942770079549518E-007	7.6544963E-002	1.6253786E-002	7.8251623E-002	1.1988292E+001	6.4899365E+003	3.0563467E+004	3.1244916E+004	-7.8011711E+001	0.0000000E+000	0.0000000E+000	0.0000000E+000	7.8011711E+001	0.0000000E+000	0.0000000E+000	0.0000000E+000	-7.8011711E+001	0.0000000E+000	0.0000000E+000	0.0000000E+000	-1.1988292E+001	0.0000000E+000	0.0000000E+000	0.0000000E+000	1.1988292E+001	4.7093620E+000	7.8011711E+001	-3.105988038369105E-007
5.0176605E+002	1.2432694E+001	2.2123415E+000	1.2627998E+001	-1.0089911E+001	04/11/2024 10:31:37.7791	1.0006189E+000	-5.1347436E-003	1.4337277E+002	4.4004993E+000	1.000000000000000E+000	38	1.0071550E-002	7.9755706E-004	0	-2.997357392677158E-007	7.7964380E-002	1.3873407E-002	7.9189114E-002	1.0089911E+001	4.4005005E+003	2.4729486E+004	2.5117959E+004	-7.9910088E+001	0.0000000E+000	0.0000000E+000	0.0000000E+000	7.9910088E+001	0.0000000E+000	0.0000000E+000	0.0000000E+000	-7.9910088E+001	0.0000000E+000	0.0000000E+000	0.0000000E+000	-1.0089911E+001	0.0000000E+000	0.0000000E+000	0.0000000E+000	1.0089911E+001	5.6196995E+000	7.9910088E+001	-1.054587313127639E-007
6.3181964E+002	1.2357817E+001	1.8673329E+000	1.2498102E+001	-8.5926971E+000	04/11/2024 10:31:38.2422	1.0006189E+000	-5.2279686E-003	1.3489792E+002	3.0113459E+000	1.000000000000000E+000	38	1.0073043E-002	8.0596586E-004	0	-6.144038628230596E-007	7.9114050E-002	1.1954561E-002	8.0012150E-002	8.5926971E+000	3.0113457E+003	1.9928775E+004	2.0155006E+004	-8.1407303E+001	0.0000000E+000	0.0000000E+000	0.0000000E+000	8.1407303E+001	0.0000000E+000	0.0000000E+000	0.0000000E+000	-8.1407303E+001	0.0000000E+000	0.0000000E+000	0.0000000E+000	-8.5926971E+000	0.0000000E+000	0.0000000E+000	0.0000000E+000	8.5926971E+000	6.6178970E+000	8.1407303E+001	-3.146681235553438E-007
7.9525262E+002	1.2283276E+001	1.5747237E+000	1.2383804E+001	-7.3055062E+000	04/11/2024 10:31:38.7057	1.0006169E+000	-5.2428842E-003	1.2708978E+002	2.0549972E+000	1.000000000000000E+000	38	1.0066453E-002	8.1287243E-004	0	-1.165304936240621E-006	8.0095112E-002	1.0268245E-002	8.0750629E-002	7.3055062E+000	2.0549963E+003	1.6029538E+004	1.6160728E+004	-8.2694496E+001	0.0000000E+000	0.0000000E+000	0.0000000E+000	8.2694496E+001	0.0000000E+000	0.0000000E+000	0.0000000E+000	-8.2694496E+001	0.0000000E+000	0.0000000E+000	0.0000000E+000	-7.3055062E+000	0.0000000E+000	0.0000000E+000	0.0000000E+000	7.3055062E+000	7.8002734E+000	8.2694496E+001	-5.509010734175617E-007
1.0016039E+003	1.2224981E+001	1.3448532E+000	1.2298732E+001	-6.2777858E+000	04/11/2024 10:31:39.1704	1.0006245E+000	-5.0060884E-003	1.1815423E+002	1.4127924E+000	1.000000000000000E+000	38	1.0075874E-002	8.1926119E-004	0	-2.041480840348716E-006	8.0821626E-002	8.8910740E-003	8.1309199E-002	6.2777858E+000	1.4127926E+003	1.2842563E+004	1.2920039E+004	-8.3722214E+001	0.0000000E+000	0.0000000E+000	0.0000000E+000	8.3722214E+001	0.0000000E+000	0.0000000E+000	0.0000000E+000	-8.3722214E+001	0.0000000E+000	0.0000000E+000	0.0000000E+000	-6.2777858E+000	0.0000000E+000	0.0000000E+000	0.0000000E+000	6.2777858E+000	9.0901976E+000	8.3722214E+001	-8.761759041080948E-007
1.2603998E+003	1.2153278E+001	1.1793934E+000	1.2210370E+001	-5.5428119E+000	04/11/2024 10:31:39.6357	1.0006238E+000	-5.4050977E-003	1.0706638E+002	9.9887896E-001	1.000000000000000E+000	38	1.0078534E-002	8.2540780E-004	0	-2.181360435380258E-006	8.1514671E-002	7.9104481E-003	8.1897601E-002	5.5428119E+000	9.9887836E+002	1.0293133E+004	1.0341486E+004	-8.4457191E+001	0.0000000E+000	0.0000000E+000	0.0000000E+000	8.4457191E+001	0.0000000E+000	0.0000000E+000	0.0000000E+000	-8.4457191E+001	0.0000000E+000	0.0000000E+000	0.0000000E+000	-5.5428119E+000	0.0000000E+000	0.0000000E+000	0.0000000E+000	5.5428119E+000	1.0304686E+001	8.4457191E+001	-1.398795950315417E-007
1.5875399E+003	1.2076908E+001	1.0346676E+000	1.2121149E+001	-4.8967566E+000	04/11/2024 10:31:40.1004	1.0006285E+000	-5.6605376E-003	9.6893494E+001	7.0600659E-001	1.000000000000000E+000	38	1.0074497E-002	8.3115033E-004	0	-3.193299250492904E-006	8.2199313E-002	7.0422795E-003	8.2500428E-002	4.8967566E+000	7.0600690E+002	8.2406914E+003	8.2708789E+003	-8.5103241E+001	0.0000000E+000	0.0000000E+000	0.0000000E+000	8.5103241E+001	0.0000000E+000	0.0000000E+000	0.0000000E+000	-8.5103241E+001	0.0000000E+000	0.0000000E+000	0.0000000E+000	-4.8967566E+000	0.0000000E+000	0.0000000E+000	0.0000000E+000	4.8967566E+000	1.1672258E+001	8.5103241E+001	-1.011938815112646E-006
1.9980818E+003	1.2005692E+001	9.0902126E-001	1.2040057E+001	-4.3299370E+000	04/11/2024 10:31:40.5659	1.0006305E+000	-5.0732093E-003	8.7625969E+001	4.9948657E-001	1.000000000000000E+000	38	1.0074693E-002	8.3676452E-004	0	-3.764015444324792E-006	8.2819030E-002	6.2707132E-003	8.3056085E-002	4.3299370E+000	4.9948703E+002	6.5968564E+003	6.6157388E+003	-8.5670059E+001	0.0000000E+000	0.0000000E+000	0.0000000E+000	8.5670059E+001	0.0000000E+000	0.0000000E+000	0.0000000E+000	-8.5670059E+001	0.0000000E+000	0.0000000E+000	0.0000000E+000	-4.3299370E+000	0.0000000E+000	0.0000000E+000	0.0000000E+000	4.3299370E+000	1.3207273E+001	8.5670059E+001	-5.707161938318881E-007
2.5158079E+003	1.1935211E+001	8.2407188E-001	1.1963627E+001	-3.9497435E+000	04/11/2024 10:31:41.0307	1.0006322E+000	-5.3062756E-003	7.6767532E+001	3.6423531E-001	1.000000000000000E+000	38	1.0066640E-002	8.4143714E-004	0	-3.760557062590831E-006	8.3388165E-002	5.7575721E-003	8.3586693E-002	3.9497435E+000	3.6423544E+002	5.2752983E+003	5.2878579E+003	-8.6050255E+001	0.0000000E+000	0.0000000E+000	0.0000000E+000	8.6050255E+001	0.0000000E+000	0.0000000E+000	0.0000000E+000	-8.6050255E+001	0.0000000E+000	0.0000000E+000	0.0000000E+000	-3.9497435E+000	0.0000000E+000	0.0000000E+000	0.0000000E+000	3.9497435E+000	1.4483216E+001	8.6050255E+001	3.458381733960570E-009
3.1680391E+003	1.1869720E+001	7.5553340E-001	1.1893742E+001	-3.6420870E+000	04/11/2024 10:31:41.4956	1.0006431E+000	-5.1310086E-003	6.6493004E+001	2.6831582E-001	1.000000000000000E+000	38	1.0066743E-002	8.4638991E-004	0	-4.628163121673020E-006	8.3908021E-002	5.3409273E-003	8.4077828E-002	3.6420870E+000	2.6831604E+002	4.2153447E+003	4.2238755E+003	-8.6357910E+001	0.0000000E+000	0.0000000E+000	0.0000000E+000	8.6357910E+001	0.0000000E+000	0.0000000E+000	0.0000000E+000	-8.6357910E+001	0.0000000E+000	0.0000000E+000	0.0000000E+000	-3.6420870E+000	0.0000000E+000	0.0000000E+000	0.0000000E+000	3.6420870E+000	1.5710385E+001	8.6357910E+001	-8.676060590821885E-007
3.9862766E+003	1.1797766E+001	7.0433462E-001	1.1818771E+001	-3.4165418E+000	04/11/2024 10:31:41.9607	1.0006399E+000	-5.7780002E-003	5.6685722E+001	2.0132008E-001	1.000000000000000E+000	38	1.0068761E-002	8.5192960E-004	0	-4.779323646064666E-006	8.4460780E-002	5.0423662E-003	8.4611163E-002	3.4165418E+000	2.0132008E+002	3.3721570E+003	3.3781611E+003	-8.6583458E+001	0.0000000E+000	0.0000000E+000	0.0000000E+000	8.6583458E+001	0.0000000E+000	0.0000000E+000	0.0000000E+000	-8.6583458E+001	0.0000000E+000	0.0000000E+000	0.0000000E+000	-3.4165418E+000	0.0000000E+000	0.0000000E+000	0.0000000E+000	3.4165418E+000	1.6750229E+001	8.6583458E+001	-1.511605243916467E-007
5.0216094E+003	1.1736336E+001	6.7812783E-001	1.1755911E+001	-3.3068848E+000	04/11/2024 10:31:42.4257	1.0006382E+000	-5.4796739E-003	4.6737518E+001	1.5551640E-001	1.000000000000000E+000	38	1.0064645E-002	8.5613481E-004	0	-4.860464745033015E-006	8.4921949E-002	4.9068071E-003	8.5063592E-002	3.3068848E+000	1.5551642E+002	2.6915173E+003	2.6960066E+003	-8.6693115E+001	0.0000000E+000	0.0000000E+000	0.0000000E+000	8.6693115E+001	0.0000000E+000	0.0000000E+000	0.0000000E+000	-8.6693115E+001	0.0000000E+000	0.0000000E+000	0.0000000E+000	-3.3068848E+000	0.0000000E+000	0.0000000E+000	0.0000000E+000	3.3068848E+000	1.7306967E+001	8.6693115E+001	-8.114109896834814E-008
6.3226445E+003	1.1666185E+001	6.4456666E-001	1.1683978E+001	-3.1624253E+000	04/11/2024 10:31:42.8132	1.0006407E+000	-5.0526960E-003	3.9052921E+001	1.1885234E-001	1.000000000000000E+000	38	1.0057158E-002	8.6076488E-004	0	-5.365274193761353E-006	8.5456952E-002	4.7215694E-003	8.5587285E-002	3.1624253E+000	1.1885223E+002	2.1511406E+003	2.1544214E+003	-8.6837578E+001	0.0000000E+000	0.0000000E+000	0.0000000E+000	8.6837578E+001	0.0000000E+000	0.0000000E+000	0.0000000E+000	-8.6837578E+001	0.0000000E+000	0.0000000E+000	0.0000000E+000	-3.1624253E+000	0.0000000E+000	0.0000000E+000	0.0000000E+000	3.1624253E+000	1.8099270E+001	8.6837578E+001	-5.048094487283384E-007
7.9597607E+003	1.1581870E+001	6.3136381E-001	1.1599066E+001	-3.1202831E+000	04/11/2024 10:31:43.1348	1.0006332E+000	-5.3659370E-003	3.1669443E+001	9.3832605E-002	1.000000000000000E+000	38	1.0033390E-002	8.6501701E-004	0	-6.142227126774893E-006	8.6086027E-002	4.6928176E-003	8.6213842E-002	3.1202831E+000	9.3832664E+001	1.7212849E+003	1.7238406E+003	-8.6879715E+001	0.0000000E+000	0.0000000E+000	0.0000000E+000	8.6879715E+001	0.0000000E+000	0.0000000E+000	0.0000000E+000	-8.6879715E+001	0.0000000E+000	0.0000000E+000	0.0000000E+000	-3.1202831E+000	0.0000000E+000	0.0000000E+000	0.0000000E+000	3.1202831E+000	1.8344210E+001	8.6879715E+001	-7.769529330135404E-007
1.0020785E+004	1.1499626E+001	6.1178899E-001	1.1515888E+001	-3.0453088E+000	04/11/2024 10:31:43.5495	1.0006580E+000	-6.1937892E-003	2.5960720E+001	7.3269829E-002	1.000000000000000E+000	38	9.8983161E-003	8.5953559E-004	0	-5.430435578937856E-006	8.6713918E-002	4.6132477E-003	8.6836547E-002	3.0453088E+000	7.3269875E+001	1.3772323E+003	1.3791799E+003	-8.6954689E+001	0.0000000E+000	0.0000000E+000	0.0000000E+000	8.6954689E+001	0.0000000E+000	0.0000000E+000	0.0000000E+000	-8.6954689E+001	0.0000000E+000	0.0000000E+000	0.0000000E+000	-3.0453088E+000	0.0000000E+000	0.0000000E+000	0.0000000E+000	3.0453088E+000	1.8796721E+001	8.6954689E+001	7.117915478370376E-007
1.2609489E+004	1.1401163E+001	5.9997803E-001	1.1416939E+001	-3.0123706E+000	04/11/2024 10:31:43.8345	1.0006535E+000	-6.2366719E-003	2.1037169E+001	5.8097661E-002	1.000000000000000E+000	38	1.0215838E-002	8.9479663E-004	0	-6.537410300289695E-006	8.7468125E-002	4.6029473E-003	8.7589152E-002	3.0123706E+000	5.8097591E+001	1.1040085E+003	1.1055361E+003	-8.6987633E+001	0.0000000E+000	0.0000000E+000	0.0000000E+000	8.6987633E+001	0.0000000E+000	0.0000000E+000	0.0000000E+000	-8.6987633E+001	0.0000000E+000	0.0000000E+000	0.0000000E+000	-3.0123706E+000	0.0000000E+000	0.0000000E+000	0.0000000E+000	3.0123706E+000	1.9002634E+001	8.6987633E+001	-1.106974721351839E-006
1.5875519E+004	1.1313605E+001	5.7777786E-001	1.1328349E+001	-2.9235153E+000	04/11/2024 10:31:44.1185	1.0006602E+000	-5.6773117E-003	1.7351271E+001	4.5135666E-002	1.000000000000000E+000	38	1.0371088E-002	9.1549859E-004	0	-7.668430084291484E-006	8.8159226E-002	4.5022294E-003	8.8274114E-002	2.9235153E+000	4.5135670E+001	8.8381219E+002	8.8496399E+002	-8.7076485E+001	0.0000000E+000	0.0000000E+000	0.0000000E+000	8.7076485E+001	0.0000000E+000	0.0000000E+000	0.0000000E+000	-8.7076485E+001	0.0000000E+000	0.0000000E+000	0.0000000E+000	-2.9235153E+000	0.0000000E+000	0.0000000E+000	0.0000000E+000	2.9235153E+000	1.9581238E+001	8.7076485E+001	-1.131019784001789E-006
1.9995176E+004	1.1215563E+001	5.4786104E-001	1.1228936E+001	-2.7965777E+000	04/11/2024 10:31:44.4025	1.0006487E+000	-5.6735817E-003	1.4528625E+001	3.4585025E-002	1.000000000000000E+000	38	1.0372362E-002	9.2371728E-004	0	-7.975087459658325E-006	8.8949569E-002	4.3450338E-003	8.9055628E-002	2.7965777E+000	3.4585022E+001	7.0800897E+002	7.0885315E+002	-8.7203423E+001	0.0000000E+000	0.0000000E+000	0.0000000E+000	8.7203423E+001	0.0000000E+000	0.0000000E+000	0.0000000E+000	-8.7203423E+001	0.0000000E+000	0.0000000E+000	0.0000000E+000	-2.7965777E+000	0.0000000E+000	0.0000000E+000	0.0000000E+000	2.7965777E+000	2.0471546E+001	8.7203423E+001	-3.066573753668407E-007
2.5172584E+004	1.1120973E+001	5.1408988E-001	1.1132849E+001	-2.6467311E+000	04/11/2024 10:31:44.6865	1.0006576E+000	-6.2665022E-003	1.2298532E+001	2.6225196E-002	1.000000000000000E+000	38	1.0194923E-002	9.1575150E-004	0	-8.653569581188802E-006	8.9728445E-002	4.1478821E-003	8.9824267E-002	2.6467311E+000	2.6225170E+001	5.6731268E+002	5.6791852E+002	-8.7353271E+001	0.0000000E+000	0.0000000E+000	0.0000000E+000	8.7353271E+001	0.0000000E+000	0.0000000E+000	0.0000000E+000	-8.7353271E+001	0.0000000E+000	0.0000000E+000	0.0000000E+000	-2.6467311E+000	0.0000000E+000	0.0000000E+000	0.0000000E+000	2.6467311E+000	2.1632351E+001	8.7353271E+001	-6.784821215304775E-007
3.1686090E+004	1.1028270E+001	4.6805021E-001	1.1038198E+001	-2.4302287E+000	04/11/2024 10:31:44.9705	1.0006515E+000	-5.6568040E-003	1.0731465E+001	1.9295124E-002	1.000000000000000E+000	38	9.8328209E-003	8.9079951E-004	0	-9.776327471902025E-006	9.0513021E-002	3.8414584E-003	9.0594500E-002	2.4302287E+000	1.9295130E+001	4.5463467E+002	4.5504395E+002	-8.7569771E+001	0.0000000E+000	0.0000000E+000	0.0000000E+000	8.7569771E+001	0.0000000E+000	0.0000000E+000	0.0000000E+000	-8.7569771E+001	0.0000000E+000	0.0000000E+000	0.0000000E+000	-2.4302287E+000	0.0000000E+000	0.0000000E+000	0.0000000E+000	2.4302287E+000	2.3562151E+001	8.7569771E+001	-1.122757890713223E-006
3.9888285E+004	1.0959478E+001	4.0273505E-001	1.0966876E+001	-2.1045382E+000	04/11/2024 10:31:45.2545	1.0006312E+000	-5.9271627E-003	9.9073009E+000	1.3360673E-002	1.000000000000000E+000	38	9.2869932E-003	8.4682211E-004	0	-1.093253055014389E-005	9.1122165E-002	3.3485254E-003	9.1183670E-002	2.1045382E+000	1.3360672E+001	3.6357901E+002	3.6382440E+002	-8.7895462E+001	0.0000000E+000	0.0000000E+000	0.0000000E+000	8.7895462E+001	0.0000000E+000	0.0000000E+000	0.0000000E+000	-8.7895462E+001	0.0000000E+000	0.0000000E+000	0.0000000E+000	-2.1045382E+000	0.0000000E+000	0.0000000E+000	0.0000000E+000	2.1045382E+000	2.7212626E+001	8.7895462E+001	-1.156203078241864E-006
5.0224543E+004	1.0911633E+001	3.5339463E-001	1.0917354E+001	-1.8549879E+000	04/11/2024 10:31:45.6735	1.0006578E+000	-5.9215659E-003	8.9669380E+000	9.3957037E-003	1.000000000000000E+000	38	9.8238681E-003	8.9983968E-004	0	-1.144339428622172E-005	9.1549285E-002	2.9650033E-003	9.1597289E-002	1.8549879E+000	9.3957062E+000	2.9010764E+002	2.9025974E+002	-8.8145012E+001	0.0000000E+000	0.0000000E+000	0.0000000E+000	8.8145012E+001	0.0000000E+000	0.0000000E+000	0.0000000E+000	-8.8145012E+001	0.0000000E+000	0.0000000E+000	0.0000000E+000	-1.8549879E+000	0.0000000E+000	0.0000000E+000	0.0000000E+000	1.8549879E+000	3.0876623E+001	8.8145012E+001	-5.108637360778324E-007
6.3233004E+004	1.0860192E+001	2.9826999E-001	1.0864287E+001	-1.5732057E+000	04/11/2024 10:31:46.0925	1.0006626E+000	-7.0458772E-003	8.4385290E+000	6.3603846E-003	1.000000000000000E+000	38	9.9047506E-003	9.1167976E-004	0	-1.220267912871592E-005	9.2009999E-002	2.5270106E-003	9.2044696E-002	1.5732057E+000	6.3603783E+000	2.3158549E+002	2.3167282E+002	-8.8426796E+001	0.0000000E+000	0.0000000E+000	0.0000000E+000	8.8426796E+001	0.0000000E+000	0.0000000E+000	0.0000000E+000	-8.8426796E+001	0.0000000E+000	0.0000000E+000	0.0000000E+000	-1.5732057E+000	0.0000000E+000	0.0000000E+000	0.0000000E+000	1.5732057E+000	3.6410610E+001	8.8426796E+001	-7.592848424942017E-007
7.9609555E+004	1.0824509E+001	2.4319972E-001	1.0827240E+001	-1.2870768E+000	04/11/2024 10:31:46.5115	1.0006667E+000	-7.2248722E-003	8.2203798E+000	4.1474625E-003	1.000000000000000E+000	38	9.8015293E-003	9.0526574E-004	0	-1.393689638902045E-005	9.2336334E-002	2.0745674E-003	9.2359640E-002	1.2870768E+000	4.1474695E+000	1.8459827E+002	1.8464485E+002	-8.8712921E+001	0.0000000E+000	0.0000000E+000	0.0000000E+000	8.8712921E+001	0.0000000E+000	0.0000000E+000	0.0000000E+000	-8.8712921E+001	0.0000000E+000	0.0000000E+000	0.0000000E+000	-1.2870768E+000	0.0000000E+000	0.0000000E+000	0.0000000E+000	1.2870768E+000	4.4508720E+001	8.8712921E+001	-1.734217260304528E-006
1.0022640E+005	1.0793134E+001	1.9138369E-001	1.0794830E+001	-1.0158615E+000	04/11/2024 10:31:46.9305	1.0006596E+000	-6.6431402E-003	8.2972288E+000	2.6080222E-003	1.000000000000000E+000	38	9.7253723E-003	9.0092869E-004	0	-1.533200461198188E-005	9.2622377E-002	1.6423786E-003	9.2636935E-002	1.0158615E+000	2.6080225E+000	1.4708011E+002	1.4710323E+002	-8.8984138E+001	0.0000000E+000	0.0000000E+000	0.0000000E+000	8.8984138E+001	0.0000000E+000	0.0000000E+000	0.0000000E+000	-8.8984138E+001	0.0000000E+000	0.0000000E+000	0.0000000E+000	-1.0158615E+000	0.0000000E+000	0.0000000E+000	0.0000000E+000	1.0158615E+000	5.6395264E+001	8.8984138E+001	-1.395108222961425E-006
1.2617837E+005	1.0779320E+001	1.4979330E-001	1.0780360E+001	-7.9615152E-001	04/11/2024 10:31:47.3495	1.0006526E+000	-7.0570661E-003	8.4205961E+000	1.6257773E-003	1.000000000000000E+000	38	9.5255328E-003	8.8360062E-004	0	-1.588003364769975E-005	9.2752323E-002	1.2889196E-003	9.2761278E-002	7.9615152E-001	1.6257746E+000	1.1699303E+002	1.1700433E+002	-8.9203850E+001	0.0000000E+000	0.0000000E+000	0.0000000E+000	8.9203850E+001	0.0000000E+000	0.0000000E+000	0.0000000E+000	-8.9203850E+001	0.0000000E+000	0.0000000E+000	0.0000000E+000	-7.9615152E-001	0.0000000E+000	0.0000000E+000	0.0000000E+000	7.9615152E-001	7.1961296E+001	8.9203850E+001	-5.480290357178698E-007
1.5885725E+005	1.0756349E+001	1.0578001E-001	1.0756868E+001	-5.6343967E-001	04/11/2024 10:31:47.7685	1.0006458E+000	-6.5349964E-003	9.4712973E+000	9.1589353E-004	1.000000000000000E+000	38	9.7020213E-003	9.0193737E-004	0	-1.726607644645264E-005	9.2959367E-002	9.1418048E-004	9.2963859E-002	5.6343967E-001	9.1589153E-001	9.3133568E+001	9.3138069E+001	-8.9436562E+001	0.0000000E+000	0.0000000E+000	0.0000000E+000	8.9436562E+001	0.0000000E+000	0.0000000E+000	0.0000000E+000	-8.9436562E+001	0.0000000E+000	0.0000000E+000	0.0000000E+000	-5.6343967E-001	0.0000000E+000	0.0000000E+000	0.0000000E+000	5.6343967E-001	1.0168602E+002	8.9436562E+001	-1.386042798752897E-006
1.9999814E+005	1.0749776E+001	5.4369245E-002	1.0749913E+001	-2.8978294E-001	04/11/2024 10:31:48.1875	1.0006449E+000	-6.9023101E-003	1.4636622E+001	3.7440148E-004	1.000000000000000E+000	38	9.5622623E-003	8.8951999E-004	0	-1.793006823379740E-005	9.3022816E-002	4.7048240E-004	9.3024008E-002	2.8978294E-001	3.7439719E-001	7.4025887E+001	7.4026833E+001	-8.9710220E+001	0.0000000E+000	0.0000000E+000	0.0000000E+000	8.9710220E+001	0.0000000E+000	0.0000000E+000	0.0000000E+000	-8.9710220E+001	0.0000000E+000	0.0000000E+000	0.0000000E+000	-2.8978294E-001	0.0000000E+000	0.0000000E+000	0.0000000E+000	2.8978294E-001	1.9771796E+002	8.9710220E+001	-6.639917873447592E-007